Current_[A];H2_Flowrate_[Nl_per_min]
52;18.4
51;18.1
50;17.8
49;17.2
48;16.9
47;16.6
46;16.3
45;16
44;15.4
43;15.2
42;14.9
41;14.6
40;14.3
39;13.7
38;13.4
37;13.1
36;12.8
35;12.5
34;11.9
33;11.6
32;11.3
31;11
30;10.7
29;10.1
28;9.8
27;9.5
26;9.2
25;8.9
24;8.6
23;8
22;7.7
21;7.4
20;7.1
19;6.8
18;6.3
17;6
16;5.7
15;5.4
14;5.1
13;4.5
12;4.2
11;3.9
10;3.6
9;3.3
8;2.7
7;2.4
6;2.1
5;1.8
4;1.5
3;0.9
2;0.6
1;0.3
0;0.0
